,Time (BJD-2454833),Relative Flux
0,2228.8205675375552,0.9980501929500633
1,2228.8415720462162,0.9984946783926568
2,2228.8625765548773,0.9989849562884626
3,2228.8835810635383,0.9991118810229098
4,2228.9003639325883,0.9994540800618607
5,2228.9213684412493,0.9992071990097594
6,2228.9423729499104,0.9995705521711181
7,2228.98432271615,1.0002654028742095
8,2229.005327224811,1.000607477477146
9,2229.026331733472,1.0012001662126089
10,2229.047336242133,1.0016762584028
11,2229.0641042984125,1.0019725405525244
12,2229.0851088070735,1.0023852948115062
13,2229.1061133157345,1.0026004446799957
14,2229.1271178243956,1.0028579027933007
15,2229.169067590635,1.0027873475732698
16,2229.1900720992962,1.0028932426213233
17,2229.2278594770073,1.0029567049885468
18,2229.2488639856683,1.003076661306201
19,2229.2908730029903,1.0026921540224343
20,2229.3328820203124,1.0023712335419055
21,2229.412619164263,1.0010342930057283
22,2229.496637198907,1.0001419623481589
23,2229.5344097638476,0.9997468780031884
24,2229.5554142725086,0.9995175424290843
25,2229.5763595300873,0.9995034811594837
26,2229.5973640387483,0.9992777542297904
27,2229.6183685474093,0.9993517936582179
28,2229.6771604337814,0.9995598506739
29,2229.7401739597644,0.9998385873456272
30,2229.761119217343,1.0004240587922684
31,2229.782123726004,1.0003958118170533
32,2229.803128234665,1.0008014732232278
33,2229.819911103715,1.0008826055044626
34,2229.861920121037,1.000967346430108
35,2229.903929138359,1.0012988439718409
36,2229.924874395938,1.001489355509526
37,2229.945878904599,1.0012742056410364
38,2229.96688341326,1.0012705969966258
39,2230.0256604868614,1.0007733506840266
40,2230.0466649955224,1.000621663182761
41,2230.1264613905555,0.9996974769055653
42,2230.1474658992165,0.9993764319890224
43,2230.252429191439,0.9983712378666062
44,2230.2692120604893,0.9982864969409606
45,2230.2902165691503,0.9981736334761139
46,2230.3112210778113,0.9982864969409606
47,2230.33216633539,0.9983782062833993
48,2230.353170844051,0.9982583744017595
49,2230.374175352712,0.9980325230360519
50,2230.416184370034,0.9980184617664515
51,2230.432967239084,0.9982441886961448
52,2230.453971747745,0.9983041668549718
53,2230.474976256406,0.998413546111422
54,2230.4959659522965,0.9985404708458692
55,2230.5379305313068,0.9989672863744514
56,2230.5589202271976,0.9990978197533094
57,2230.5757030962473,0.9992635685241757
58,2230.5967076049083,0.9990978197533094
59,2230.6177121135693,0.9991083968145132
60,2230.6387166222303,0.9993764319890224
61,2230.739458274842,0.9984699156258382
62,2230.760462783503,0.9981489951453094
63,2230.781467292164,0.9980044004968509
64,2230.802471800825,0.9976445315438889
65,2230.823476309486,0.9972071389541026
66,2230.8444363798358,0.9970202360608285
67,2230.8654705140375,0.9968473944371548
68,2230.882208944776,0.9967839320699311
69,2230.903243078978,0.9965898118878354
70,2230.945163219677,0.9962583143461027
71,2230.966197353879,0.9961700892120605
72,2230.987231488081,0.995954939343571
73,2231.008265622283,0.9960078246495907
74,2231.029299756485,0.9959337852211632
75,2231.0460381872235,0.9960360716248059
76,2231.0670723214257,0.9963394466273376
77,2231.0879583279225,0.996674552813481
78,2231.108992462124,0.9971859848316947
79,2231.1300265963264,0.9974964526870338
80,2231.1719467370253,0.9983676292221955
81,2231.2307534361676,0.9993200624746061
82,2231.3147418452704,1.001069632833751
83,2231.352514410211,1.0020184574417508
84,2231.373548544413,1.0023605320446876
85,2231.3945826786153,1.0025193123987606
86,2231.457536953516,1.003076661306201
87,2231.4784229600127,1.0032424100770672
88,2231.4953095184565,1.0031507007346285
89,2231.516195524953,1.003284718321883
90,2231.558263793357,1.0029567049885468
91,2231.5792979275593,1.0027273694144427
92,2231.6003320617615,1.0023818106031095
93,2231.6212180682583,1.002325316652679
94,2231.6422522024604,1.0023464707750869
95,2231.7010589016027,1.0015599107295567
96,2231.722093035805,1.00149993257073
97,2231.7429790423016,1.0012742056410364
98,2231.7850473107055,1.001016623091717
99,2231.822819875646,1.0009496765160968
100,2231.843854009848,1.0008967912100772
101,2231.864740016345,1.00106602418934
102,2231.885774150547,1.0011754034457903
103,2231.906808284749,1.0011436722621785
104,2231.927842418951,1.0013728834002684
105,2231.948728425448,1.0015633949379534
106,2231.9656149838916,1.0016057031827692
107,2231.9865009903883,1.0015422408155454
108,2232.0075351245905,1.0016127960355765
109,2232.070489399491,1.0021807220042207
110,2232.0915235336934,1.0022793997634527
111,2232.129296098634,1.0023218324442826
112,2232.19239850124,1.0020713427477705
113,2232.2132845077367,1.0018985011240968
114,2232.234318641939,1.0018314301124625
115,2232.2553527761406,1.0014928397179224
116,2232.272091206879,1.0013094210330449
117,2232.293125341081,1.0010907869561587
118,2232.314011347578,1.000875512651655
119,2232.3560796159823,1.0003571122166484
120,2232.377113750184,1.0002265788377904
121,2232.4148863151245,0.9992952997077875
122,2232.4988747242273,0.9989603179576583
123,2232.519760730724,0.9989778634356553
124,2232.5407948649263,0.9987167966779394
125,2232.578567429867,0.9990095946192671
126,2232.599601564069,0.9989884404968593
127,2232.683589973172,0.9996974769055653
128,2232.704624107374,0.9997221152363698
129,2232.7213625381123,1.0000043361164936
130,2232.742396672314,1.0001348694953516
131,2232.763430806516,1.0004452129146764
132,2232.784316813013,1.000547499318319
133,2232.805350947215,1.0006497857219618
134,2232.8263850814174,1.0007839277452306
135,2232.8472710879137,1.000939099454893
136,2232.8641576463574,1.0008931825656664
137,2232.885043652854,1.0008120502844315
138,2232.9691801896624,1.0002442487518015
139,2232.990066196159,0.9999726049328818
140,2233.0111003303614,0.9997609392727889
141,2233.027986888805,0.9992989083521983
142,2233.048872895302,0.9989672863744514
143,2233.069907029504,0.9984664314174416
144,2233.090941163706,0.9978456201427778
145,2233.1706338693452,0.9966005133850535
146,2233.1916680035474,0.9963429308357341
147,2233.2125540100437,0.9963006225909184
148,2233.233588144246,0.9958738070623362
149,2233.254622278448,0.9960185261468089
150,2233.2756564126503,0.995856261584339
151,2233.2966905468525,0.995746882327889
152,2233.3175765533488,0.9956657500466541
153,2233.3344631117925,0.9957257282054811
154,2233.3553491182893,0.9957926747811012
155,2233.3763832524915,0.9959937633799902
156,2233.3974173866936,0.9965263495206118
157,2233.41830339319,0.9970448743916329
158,2233.4603716615943,0.9977856419839507
159,2233.4771100923326,0.9981101711088902
160,2233.498144226535,0.9982970740021645
161,2233.519178360737,0.9986145102742967
162,2233.540212494939,0.9989567093132474
163,2233.5821326356377,0.9998843797988395
164,2233.682859475479,1.00133766800826
165,2233.703893609681,1.0015987347659758
166,2233.724927743883,1.0017891218676467
167,2233.7458137503795,1.0018738627932924
168,2233.7668478845817,1.0020430957725552
169,2233.783734443026,1.0021876904210139
170,2233.8466887179266,1.0017256595004231
171,2233.8677228521287,1.001626857305177
172,2233.9096429928272,1.0012036504210056
173,2233.9474155577677,1.0013234823026453
174,2233.989483826172,1.0012001662126089
175,2234.0103698326684,1.0012459586658211
176,2234.073472235275,1.0014258931423023
177,2234.153164940914,1.0019902104665357
178,2234.174199075116,1.0020678585393739
179,2234.1952332093183,1.0022793997634527
180,2234.2161192158146,1.0025193123987606
181,2234.237153350017,1.002875572707312
182,2234.253891780755,1.0030237760001812
183,2234.2749259149573,1.003203586040648
184,2234.337880189858,1.0032212559546594
185,2234.35891432406,1.0034364058231489
186,2234.3966868890006,1.0032458942854638
187,2234.417721023203,1.0034152517007409
188,2234.459789291607,1.0029178809521277
189,2234.4806752981035,1.002477004153945
190,2234.5017094323057,1.0023712335419055
191,2234.522743566508,1.0020713427477705
192,2234.5605161314484,1.0014188002894948
193,2234.602436272147,1.000988500552516
194,2234.644504540551,1.0002160017765864
195,2234.6655386747534,0.9998984410684401
196,2234.6864246812497,0.9997326922975737
197,2234.703311239694,0.9993800406334331
198,2234.7452313803924,0.9990731814225049
199,2234.7662655145946,0.9989990175580632
200,2234.787151521091,0.9989496164604401
201,2234.808185655293,0.9991401279981251
202,2234.8292197894953,0.9992564756713683
203,2234.8502539236974,0.9994152560254416
204,2234.8669923544358,0.9993764319890224
205,2234.888026488638,0.9994575642702572
206,2234.90906062284,0.9998385873456272
207,2234.9299466293364,1.0000185218221083
208,2234.9509807635386,1.0002406401073909
209,2234.993049031943,1.000797989014831
210,2235.0308215968835,1.001178887654187
211,2235.072741737582,1.001648135863599
212,2235.1356960124826,1.0016727741944034
213,2235.152434443221,1.0016057031827692
214,2235.173468577423,1.001877347001689
215,2235.1945027116253,1.0016516200719956
216,2235.2155368458275,1.0014505314731066
217,2235.257456986526,1.0009743148469012
218,2235.278491120728,1.0006568785747691
219,2235.2995252549304,1.0003111953274217
220,2235.358331954073,0.9992564756713683
221,2235.4002520947715,0.9981913033901251
222,2235.4212862289737,0.9977821577755541
223,2235.442320363176,0.9974540200062039
224,2235.459058793914,0.9972495716349326
225,2235.4800929281164,0.9969356195711969
226,2235.5011270623186,0.9967522008863193
227,2235.522013068815,0.9965863276794388
228,2235.543047203017,0.9965511122874304
229,2235.5640813372192,0.996445217239377
230,2235.5849673437156,0.996364084958142
231,2235.6060014779177,0.9964347646141871
232,2235.6437740428582,0.9967451080335119
233,2235.6648081770604,0.9967522008863193
234,2235.727762451961,0.9972142318069099
235,2235.7655350169016,0.9981278410229015
236,2235.8705575602066,0.9992600843157791
237,2235.891591694409,0.9994681413314612
238,2235.9293642593493,0.9997891862480041
239,2235.9502502658456,0.9999691207244852
240,2235.971284400048,0.9998138245788085
241,2235.99231853425,0.9999726049328818
242,2236.013352668452,0.999958419227267
243,2236.0552728091507,0.9998491644068311
244,2236.093045374091,0.9998385873456271
245,2236.1140795082933,0.9997680321255962
246,2236.1351136424955,0.9998491644068311
247,2236.155999648992,0.9997609392727889
248,2236.177033783194,0.9996834156359647
249,2236.198067917396,0.9996692299303501
250,2236.2189539238925,0.9997715163339929
251,2236.2358404823367,0.9999020497128508
252,2236.277760623035,1.0002230946293937
253,2236.2987947572374,1.000787411953627
254,2236.3198288914396,1.0006428173051687
255,2236.3408630256417,1.0010131388833206
256,2236.361897159844,1.0010977553729519
257,2236.3786355905822,1.0014752942399254
258,2236.3996697247844,1.0018702541488815
259,2236.4205557312807,1.0022301231018438
260,2236.462623999685,1.0029603136329577
261,2236.4835100061814,1.003214163101852
262,2236.5045441403836,1.0036057632384259
263,2236.5255782745858,1.0038632213517311
264,2236.542316705324,1.0041171952566397
265,2236.5633508395263,1.0043146752111178
266,2236.6054191079306,1.0045616806992332
267,2236.626305114427,1.004452301442783
268,2236.647339248629,1.004244244427101
269,2236.6683733828313,1.0041877504766705
270,2236.6851118135696,1.0040607013062093
271,2236.706145947772,1.0037080496420687
272,2236.727180081974,1.0033129652970982
273,2236.7480660884703,1.0029637978413541
274,2236.7691002226725,1.0026004446799957
275,2236.7901343568747,1.0023076467386678
276,2236.8489410560173,1.0010977553729519
277,2236.8698270625137,1.000628631599554
278,2236.890861196716,1.0001983318625751
279,2236.911895330918,0.9999126267740548
280,2236.93292946512,0.9996234374771378
281,2236.9748496058187,0.9993200624746061
282,2236.991736164263,0.9991153652313065
283,2237.012622170759,0.9989955333496666
284,2237.0336563049614,0.9989778634356553
285,2237.0546904391636,0.9989214939212391
286,2237.07557644566,0.9989003397988312
287,2237.096610579862,0.9991049126061167
288,2237.117644714064,0.9989990175580632
289,2237.1386788482664,0.9992635685241757
290,2237.1554172790047,0.999499872515073
291,2237.176451413207,0.999619828832727
292,2237.197485547409,1.000028974447298
293,2237.2183715539054,1.000290041205014
294,2237.2394056881076,1.0005863233547383
295,2237.2604398223098,1.000688609758381
296,2237.281325828806,1.0010448700669323
297,2237.2982123872503,1.0011260023481672
298,2237.3190983937466,1.0013199980942487
299,2237.3401325279488,1.001549333668353
300,2237.361166662151,1.0017433294144344
301,2237.382200796353,1.0019232638909155
302,2237.4030868028494,1.001778544806443
303,2237.4241209370516,1.0017362365616271
304,2237.445155071254,1.0017362365616271
305,2237.461893501992,1.001408223228291
306,2237.4829276361943,1.0012812984938437
307,2237.5039617703965,1.0011648263845863
308,2237.5249959045987,1.000917945332485
309,2237.545881911095,1.0006497857219618
310,2237.6046886102376,0.9997962791008115
311,2237.62572274444,0.9994294417310563
312,2237.646608750936,0.9991153652313065
313,2237.6676428851383,0.9990166874720745
314,2237.6886770193405,0.9988085060203783
315,2237.7097111535427,0.9985969647962996
316,2237.730745287745,0.9983605363693882
317,2237.747483718483,0.9982053646597258
318,2237.7685178526854,0.9979619678160211
319,2237.7894038591817,0.9977079939111125
320,2237.810437993384,0.9977221796167272
321,2237.831472127586,0.9978033118979621
322,2237.852358134083,0.9977504265919424
323,2237.8733922682845,0.9976904484331154
324,2237.8944264024867,0.9976975412859227
325,2237.911164833225,0.9977821577755542
326,2237.932198967427,0.9979302366324092
327,2237.9532331016294,0.9979196595712053
328,2237.974119108126,0.9980044004968509
329,2238.01618737653,0.9982970740021645
330,2238.0372215107323,0.9981595722065134
331,2238.0749940756727,0.9985758106738917
332,2238.1589824847756,0.9984452772950337
333,2238.1798684912724,0.9984593385646343
334,2238.2009026254746,0.9983852991362068
335,2238.217641056213,0.9982053646597258
336,2238.2386751904146,0.9982583744017596
337,2238.322663599518,0.9976762627275007
338,2238.3436977337196,0.9975564308458609
339,2238.360584292164,0.9975316680790423
340,2238.38147029866,0.9975457293486427
341,2238.4025044328623,0.9974435673810141
342,2238.4235385670645,0.9976516243966962
343,2238.4444245735613,0.9977256638251237
344,2238.465458707763,0.9975987390906766
345,2238.486492841965,0.9977679720699395
346,2238.5242654069057,0.9981419022925021
347,2238.5661855476046,0.9989073082156245
348,2238.5872196818063,0.9991647663289296
349,2238.6082538160085,0.9996621370775428
350,2238.6292879502107,0.9998774113820464
351,2238.6501739567075,1.000519376779118
352,2238.667060515151,1.0009461923077003
353,2238.7089806558497,1.0016727741944036
354,2238.7509007965486,1.0023782019586989
355,2238.771934930751,1.0029603136329577
356,2238.830741629893,1.003856252934938
357,2238.8728098982974,1.0039478378413627
358,2238.8938440324996,1.0041031339870392
359,2238.9147300389964,1.0040925569258352
360,2238.935764173198,1.0041419580234583
361,2238.9567983074003,1.0039302923633655
362,2238.9735367381386,1.0037786048620996
363,2238.994570872341,1.003655164336049
364,2239.0154568788375,1.0033129652970982
365,2239.0575251472414,1.0026145059495961
366,2239.0785592814436,1.0023324095054864
367,2239.0994452879404,1.0019725405525244
368,2239.1204794221426,1.001697412525208
369,2239.1373659805863,1.0013234823026453
370,2239.158251987083,1.0012423500214105
371,2239.179286121285,1.0007345266476075
372,2239.200320255487,1.0005616850239338
373,2239.2212062619838,1.000431151645076
374,2239.242240396186,1.000039551508502
375,2239.2800129611264,0.9997786091868002
376,2239.342967236027,0.999690384052758
377,2239.3640013702293,0.999630405893931
378,2239.3850355044315,0.9997363009419845
379,2239.406069638633,0.9999055339212475
380,2239.4271037728354,0.9998843797988396
381,2239.4438422035737,1.000022006030505
382,2239.464876337776,1.0004029046698606
383,2239.4857623442726,1.000420574583872
384,2239.506796478475,1.0008720284432586
385,2239.5487166191733,1.0010625399809436
386,2239.5697507533755,1.0013624307750788
387,2239.586489184114,1.0015422408155457
388,2239.607523318316,1.0014434386202995
389,2239.628557452518,1.0014822626567186
390,2239.64959158672,1.0014222844978915
391,2239.670625720922,1.0013447608610675
392,2239.691511727419,1.0012142274822096
393,2239.712545861621,1.00110845687017
394,2239.733579995823,1.00088969835727
395,2239.7503184265615,1.0006251473911574
396,2239.7713525607633,1.0003429265110337
397,2239.7923866949654,1.0000854683977285
398,2239.8343068356644,0.9997645479171997
399,2239.8553409698666,0.9996163446243305
400,2239.876226976363,0.9993870090502264
401,2239.9350336755056,0.9987838676895738
402,2239.9560678097077,0.9990836340476947
403,2239.97710194391,0.9986569429551266
404,2239.9981360781117,0.9986252117715149
405,2240.0190220846084,0.9985863877350957
406,2240.035908643052,0.998413546111422
407,2240.056794649549,0.9985687178210844
408,2240.077828783751,0.9985123483066681
409,2240.0988629179533,0.9986463658939226
410,2240.1197489244496,0.9986886741387384
411,2240.140783058652,0.998762713567166
412,2240.161817192854,0.9989461322520435
413,2240.182851327056,0.9990061104108706
414,2240.2206238919966,0.9991366437897286
415,2240.2416580261984,0.9991718591817369
416,2240.2626921604005,0.9992671771685865
417,2240.2835781668973,0.9993658549278185
418,2240.3046123010995,0.9995034811594838
419,2240.3256464353017,0.9995492736126962
420,2240.34238486604,0.9993376079526033
421,2240.3634190002417,0.9993870090502264
422,2240.4053391409407,0.9989214939212392
423,2240.426373275143,0.9986533343107159
424,2240.4682934158413,0.9981701492677173
425,2240.4893275500435,0.9978456201427779
426,2240.548134249186,0.9971895934761056
427,2240.5691683833884,0.9968967955347778
428,2240.5900543898847,0.996547628079034
429,2240.6488610890274,0.9959726092575824
430,2240.6698952232296,0.9958632300011323
431,2240.6909293574317,0.9957680364502969
432,2240.711815363928,0.9957045740830733
433,2240.7328494981302,0.9957962834255121
434,2240.7538836323324,0.9959337852211633
435,2240.7749177665346,0.996025494563602
436,2240.795951900737,0.9962406444320915
437,2240.833724465677,0.9967345309723081
438,2240.8546104721736,0.9971577378564797
439,2240.8756446063758,0.9975246996622491
440,2240.896678740578,0.9979619678160211
441,2240.9175647470743,0.998533502429076
442,2240.9385988812764,0.99899204914127
443,2240.9553373120148,0.9995528822571069
444,2240.976371446217,0.9999831819940858
445,2241.102428123724,1.0024099331423106
446,2241.1191665544625,1.0028050174872811
447,2241.1402006886647,1.0029213651605244
448,2241.161234822867,1.0029672820497508
449,2241.182120829363,1.003066084244997
450,2241.2031549635653,1.0030131989389774
451,2241.2241890977675,1.0030801455145975
452,2241.245075104264,1.0029143967437313
453,2241.261961662708,1.0028155945484851
454,2241.2828476692043,1.0027063397280491
455,2241.3038818034065,1.002427603056322
456,2241.3249159376087,1.0022018761266285
457,2241.345950071811,1.002018457441751
458,2241.3878702125094,1.001588157704772
459,2241.4089043467116,1.0015457250239421
460,2241.42564277745,1.0014222844978915
461,2241.446676911652,1.0012213203350169
462,2241.4677110458542,1.001080209894955
463,2241.4885970523505,1.001076601250544
464,2241.5096311865527,1.0010202317361279
465,2241.551699454957,1.001069632833751
466,2241.5684378856954,1.0009073682712812
467,2241.5894720198976,1.0009354908104824
468,2241.6105061540998,1.001168435028997
469,2241.6524262947983,1.0013305751554529
470,2241.6734604290004,1.00149993257073
471,2241.6944945632026,1.0015739719991574
472,2241.715380569699,1.001679867047211
473,2241.732267128143,1.0018808312100858
474,2241.7531531346394,1.0019725405525244
475,2241.7741872688416,1.00194790222172
476,2241.795221403044,1.0020607656865668
477,2241.81610740954,1.0021101667841898
478,2241.8371415437423,1.00205728147817
479,2241.8581756779445,1.00205728147817
480,2241.874914108683,1.0019761491969352
481,2241.895948242885,1.0017115982308227
482,2241.916982377087,1.0015633949379534
483,2241.9589025177856,1.0011294865565639
484,2241.979936651988,1.0012142274822096
